"Time (s)","X (rad/s)","Y (rad/s)","Z (rad/s)"
2.646712499E-2,-4.686094224E-1,4.990074039E-2,-1.023852468E0
3.652712499E-2,-4.329732656E-1,-1.453696638E-1,-1.145679235E0
4.658712499E-2,-4.916336238E-1,-2.389824390E-1,-1.303516507E0
5.664712499E-2,-5.955094695E-1,-1.649080664E-1,-1.437266469E0
6.670712499E-2,-7.144339681E-1,-3.930753842E-2,-1.551571727E0
7.676712499E-2,-8.257349730E-1,8.812152594E-2,-1.660131574E0
8.682712499E-2,-9.455822706E-1,1.566031128E-1,-1.758605123E0
9.688712499E-2,-1.063630342E0,2.617941797E-1,-1.858405471E0
1.069471250E-1,-1.202321053E0,2.787078917E-1,-1.862999439E0
1.170071250E-1,-1.403858066E0,2.510400116E-1,-1.878514528E0
1.270671250E-1,-1.653983712E0,-5.510476232E-1,-1.881942272E0
1.371271250E-1,-1.659032941E0,-1.161702871E0,-1.727239609E0
1.471871250E-1,-1.569927335E0,-1.115596890E0,-1.458829403E0
1.572471250E-1,-1.381731749E0,-1.369930029E0,-1.053292274E0
1.673071250E-1,-1.143261433E0,-1.685030103E0,-7.161672711E-1
1.773671250E-1,-9.743092656E-1,-2.081552744E0,-6.233798862E-1
1.874271250E-1,-1.019962192E0,-2.855344057E0,-8.664609790E-1
1.974871250E-1,-9.931244850E-1,-3.353016376E0,-1.142432690E0
2.075471250E-1,-7.842133641E-1,-3.400188446E0,-1.262153149E0
2.176071250E-1,-5.765766501E-1,-3.079565525E0,-1.236422658E0
2.276671250E-1,-3.279924095E-1,-1.656151891E0,-1.092007875E0
2.377271250E-1,-1.664400399E-1,-6.555262208E-1,-8.441092372E-1
2.477868750E-1,-9.158603102E-2,-1.491567641E-1,-5.933337808E-1
2.578468750E-1,-1.751787215E-1,-2.882689536E-1,-4.380368590E-1
2.679068750E-1,-2.239414603E-1,-7.091775537E-1,-2.596777678E-1
2.779668750E-1,-8.895202726E-2,-1.131227255E0,9.996088594E-2
2.880268750E-1,2.151585966E-1,-1.650991917E0,4.394425452E-1
2.980868750E-1,5.012682676E-1,-2.460291862E0,7.250466943E-1
3.081468750E-1,7.912561893E-1,-3.524319649E0,8.698363304E-1
3.182068750E-1,1.067238569E0,-4.428840160E0,7.568716407E-1
3.282668750E-1,1.267547607E0,-4.917181492E0,5.067046881E-1
3.383268750E-1,1.323441267E0,-5.016878128E0,4.675939381E-1
3.483868750E-1,1.278897166E0,-4.881978512E0,8.464418650E-1
3.584468750E-1,1.204537630E0,-4.865368366E0,1.473556638E0
3.685068750E-1,1.142988682E0,-5.395083427E0,2.226862192E0
3.785668750E-1,1.235973477E0,-7.008656025E0,3.125140429E0
3.886268750E-1,1.571119785E0,-8.636320114E0,3.842876196E0
3.986868750E-1,2.148816109E0,-9.502551079E0,3.626299143E0
4.087468750E-1,2.660891533E0,-9.611783981E0,2.996637106E0
4.188068750E-1,3.064098835E0,-8.698142052E0,2.587856293E0
4.288668750E-1,3.073616266E0,-7.724820137E0,2.255443573E0
4.389268750E-1,2.881892204E0,-6.883991718E0,2.097026825E0
4.489868750E-1,2.641643763E0,-6.672986507E0,2.210284472E0
4.590468750E-1,2.800553322E0,-6.845302582E0,2.593619108E0
4.691068750E-1,3.212299824E0,-6.687025070E0,3.105784655E0
4.791668750E-1,3.497461557E0,-5.755745411E0,3.660736322E0
4.892268750E-1,3.455496788E0,-4.561209202E0,4.201687813E0
4.992868750E-1,2.863772869E0,-3.337259293E0,4.613329887E0
5.093468750E-1,1.754506826E0,-1.910288453E0,4.931829929E0
5.194068750E-1,4.717923403E-1,-6.282363534E-1,5.354202747E0
5.294668750E-1,-5.560392737E-1,3.662710488E-1,5.873258114E0
5.395268750E-1,-1.196075439E0,9.115967155E-1,6.090992451E0
5.495868750E-1,-1.408508778E0,8.615969419E-1,5.953401566E0
5.596468750E-1,-1.224568129E0,4.134148061E-1,5.601856709E0
5.697068750E-1,-8.055546284E-1,-2.690852061E-2,5.113162518E0
5.797668750E-1,-3.592022359E-1,-3.013615310E-1,4.701190948E0
5.898268750E-1,1.232176088E-2,-3.679751754E-1,4.484655380E0
5.998868750E-1,2.489785701E-1,-2.259051055E-1,4.346414566E0
6.099468750E-1,3.330399096E-1,1.604282111E-2,4.171103477E0
6.200068750E-1,4.485392570E-1,-3.786634281E-2,3.991347313E0
6.300668750E-1,3.176195920E-1,3.594554663E-1,3.398843288E0
6.401268750E-1,5.383810773E-2,7.095028758E-1,2.907604933E0
6.501868750E-1,-1.313269436E-1,8.435783982E-1,2.708115816E0
6.602468750E-1,-1.968007833E-1,8.825622201E-1,2.539865494E0
6.703068750E-1,-2.257831544E-1,9.479721189E-1,2.395524263E0
6.803668750E-1,-2.013851255E-1,9.647868872E-1,2.220141888E0
6.904268750E-1,-1.065044180E-1,9.377049804E-1,2.020006180E0
7.004868750E-1,6.925921887E-2,8.080394864E-1,1.815099478E0
7.105468750E-1,2.433814853E-1,6.770430803E-1,1.507722259E0
7.206068750E-1,2.814403772E-1,5.643488765E-1,1.216440201E0
7.306668750E-1,2.584407926E-1,4.539541900E-1,9.975517392E-1
7.407268750E-1,1.908938438E-1,3.301750422E-1,8.476750255E-1
7.507868750E-1,9.237258881E-2,2.157610953E-1,7.672060132E-1
7.608468750E-1,-3.671009094E-2,1.325867325E-1,7.577793598E-1
7.709068750E-1,-1.498851031E-1,7.393326610E-2,7.987534404E-1
7.809668750E-1,-2.573205829E-1,2.469596267E-2,8.429201245E-1
7.910268750E-1,-3.471029401E-1,1.787294447E-2,8.478624225E-1
8.010868750E-1,-4.129462540E-1,-5.118284374E-3,7.871823907E-1
8.111468750E-1,-4.460797012E-1,-4.334076867E-2,6.413724422E-1
8.212068750E-1,-4.506117404E-1,-6.394056976E-2,4.549932778E-1
8.312668750E-1,-4.353587329E-1,-7.704412192E-2,3.110091984E-1
8.413268750E-1,-4.400488436E-1,-8.003462106E-2,2.196118236E-1
8.513868750E-1,-4.448611736E-1,-9.612756968E-2,1.340753436E-1
8.614468750E-1,-4.049527049E-1,-1.305507421E-1,6.206601858E-2
8.715068750E-1,-3.275766969E-1,-2.491796464E-1,3.713057563E-2
8.815668750E-1,-2.553031147E-1,-5.332907438E-1,9.969851375E-2
8.916268750E-1,-5.871785805E-2,-5.718368292E-1,-3.705134988E-2
9.016868750E-1,2.204336673E-1,-6.594271064E-1,-2.105703056E-1
9.117468750E-1,3.613854647E-1,-6.797446609E-1,-3.532483578E-1
9.218068750E-1,3.734809458E-1,-5.665155649E-1,-4.738151133E-1
9.318678750E-1,3.348022699E-1,-4.333588481E-1,-5.774722099E-1
9.419278750E-1,2.627176046E-1,-3.227398396E-1,-6.341850162E-1
9.519878750E-1,1.838401109E-1,-2.579935789E-1,-6.408557296E-1
9.620478750E-1,1.158839837E-1,-2.240909189E-1,-6.233747005E-1
9.721078750E-1,8.384296298E-2,-1.720713824E-1,-6.088847518E-1
9.821678750E-1,1.233894750E-1,-2.421141136E-3,-5.898762345E-1
9.922278750E-1,2.054188401E-1,1.809356362E-1,-5.948811173E-1
1.002287875E0,2.634422779E-1,1.688456684E-1,-6.012306809E-1
1.012347875E0,3.128207326E-1,1.940785795E-1,-6.421954036E-1
1.022407875E0,3.271332085E-1,1.931942254E-1,-6.932948828E-1
1.032467875E0,3.154858947E-1,1.753662229E-1,-7.103713751E-1
1.042527875E0,2.854947746E-1,1.806137413E-1,-7.024819255E-1
1.052587875E0,2.267955095E-1,1.950965375E-1,-6.729328036E-1
1.062647875E0,1.669663638E-1,2.166192234E-1,-6.397117376E-1
1.072707875E0,1.171287671E-1,2.535117269E-1,-6.298969388E-1
1.082767875E0,8.472973853E-2,2.951913178E-1,-6.398279667E-1
1.092827875E0,7.677833736E-2,3.531699181E-1,-6.777141094E-1
1.102887875E0,1.039007902E-1,4.263921082E-1,-7.401120067E-1
1.112947875E0,1.472927481E-1,4.808500409E-1,-8.074646592E-1
1.123007875E0,1.878437847E-1,5.046433210E-1,-8.679540157E-1
1.133067875E0,2.137371600E-1,5.397731066E-1,-8.964903355E-1
1.143127875E0,2.369324565E-1,5.364074111E-1,-8.984680772E-1
1.153187875E0,2.595650554E-1,4.854046404E-1,-8.727275729E-1
1.163247875E0,2.068749666E-1,4.752298594E-1,-8.246061206E-1
1.173307875E0,2.079388946E-1,4.263917506E-1,-7.772729397E-1
1.183367875E0,1.919248104E-1,3.754417002E-1,-7.001159787E-1
1.193427875E0,3.009335995E-1,2.298765033E-1,-6.256257892E-1
1.203487875E0,4.417988360E-1,2.246921510E-2,-5.596815348E-1
1.213547875E0,5.409352779E-1,-1.669430584E-1,-4.684285820E-1
1.223607875E0,6.256384850E-1,-2.784198821E-1,-3.886573613E-1
1.233667875E0,6.539763808E-1,-3.016282618E-1,-3.244813085E-1
1.243727875E0,6.436279416E-1,-3.459697068E-1,-2.866885662E-1
1.253788000E0,5.715436339E-1,-3.752966821E-1,-2.899011374E-1
1.263848000E0,4.503463805E-1,-3.706733584E-1,-2.817385495E-1
1.273908000E0,3.147150278E-1,-3.644719124E-1,-2.300191522E-1
1.283968000E0,1.627833694E-1,-3.770194054E-1,-1.455301493E-1
1.294028000E0,9.114185348E-3,-3.715434074E-1,-6.260198355E-2
1.304088000E0,-1.345212162E-1,-3.860743046E-1,8.770041168E-3
1.314148000E0,-2.390148640E-1,-3.994417787E-1,9.568363428E-2
1.324208000E0,-3.122162223E-1,-3.918131888E-1,1.947298497E-1
1.334268000E0,-3.667804003E-1,-3.730064929E-1,2.893077433E-1
1.344328000E0,-4.091796875E-1,-3.703305721E-1,3.717761934E-1
1.354388000E0,-4.327135086E-1,-3.953866661E-1,4.483660460E-1
1.364448000E0,-4.512251914E-1,-4.471878409E-1,5.324960351E-1
1.374508000E0,-4.781076908E-1,-5.345155597E-1,6.308558583E-1
1.384568000E0,-5.094147921E-1,-6.613148451E-1,7.418957353E-1
1.394628000E0,-5.281487703E-1,-8.392515182E-1,8.673133254E-1
1.404688000E0,-5.292659402E-1,-1.027066469E0,9.980828762E-1
1.414748000E0,-5.017735958E-1,-1.179045916E0,1.090279102E0
1.424808000E0,-4.174072444E-1,-1.284594893E0,1.103563905E0
1.434868000E0,-2.638203502E-1,-1.363953114E0,1.014463544E0
1.444928000E0,-2.483736165E-2,-1.405268431E0,8.336369395E-1
1.454988000E0,2.501731813E-1,-1.404086709E0,5.728842020E-1
1.465048000E0,4.848034084E-1,-1.309229016E0,2.420192212E-1
1.475108000E0,6.625313163E-1,-1.090673327E0,-9.718547761E-2
1.485168000E0,7.927045226E-1,-8.151916862E-1,-3.827075064E-1
1.495228000E0,8.849990368E-1,-5.710242391E-1,-5.928514004E-1
1.505288000E0,9.278450608E-1,-4.262644649E-1,-7.482254505E-1
1.515348000E0,9.444842339E-1,-3.767379224E-1,-8.766723871E-1
1.525408000E0,9.450523257E-1,-4.368107319E-1,-1.010922313E0
1.535468000E0,9.039538503E-1,-5.604104400E-1,-1.167726278E0
1.545528000E0,7.891833186E-1,-6.712500453E-1,-1.328201413E0
1.555588000E0,6.071775556E-1,-6.806978583E-1,-1.469150543E0
1.565648000E0,4.298571348E-1,-6.072980165E-1,-1.597767472E0
1.575708000E0,2.861369848E-1,-5.239328146E-1,-1.683652043E0
1.585768000E0,1.618343741E-1,-4.256199002E-1,-1.717659712E0
1.595828000E0,3.305055574E-2,-2.763507962E-1,-1.728167772E0
1.605888000E0,-9.757779539E-2,-8.571229875E-2,-1.706887484E0
1.615948000E0,-2.943648994E-1,1.388017535E-1,-1.658294678E0
1.626008000E0,-5.899485350E-1,3.513052464E-1,-1.599093437E0
1.636068000E0,-9.309498072E-1,5.200349092E-1,-1.547558188E0
1.646129000E0,-1.225446939E0,6.427950859E-1,-1.470342278E0
1.656188000E0,-1.423718929E0,7.294914126E-1,-1.351313591E0
1.666249000E0,-1.490723014E0,7.891822457E-1,-1.225101709E0
1.676309000E0,-1.436949253E0,7.994008064E-1,-1.095886111E0
1.686369000E0,-1.273034930E0,7.694538236E-1,-9.784385562E-1
1.696429000E0,-1.026648879E0,7.240881920E-1,-8.811212778E-1
1.706489000E0,-7.484847903E-1,6.602462530E-1,-8.284771442E-1
1.716549000E0,-4.877018929E-1,5.809682012E-1,-8.360602856E-1
1.726609000E0,-2.636725307E-1,4.767625630E-1,-8.825089931E-1
1.736669000E0,-7.169962674E-2,3.417261541E-1,-8.892446756E-1
1.746729000E0,6.829596311E-2,1.933100522E-1,-8.223205805E-1
1.756789000E0,1.468027383E-1,6.400159001E-2,-6.874325275E-1
1.766849000E0,1.990870237E-1,-4.512188584E-2,-5.031135678E-1
1.776909000E0,2.368274778E-1,-1.403506696E-1,-3.161258399E-1
1.786969000E0,2.790848613E-1,-2.275374830E-1,-1.546317190E-1
1.797029000E0,3.578286767E-1,-3.585152328E-1,-2.618107386E-2
1.807089000E0,5.486747622E-1,-6.139882803E-1,5.063876510E-2
1.817149000E0,4.833069146E-1,-7.841083407E-1,7.107534446E-3
1.827209000E0,2.518361211E-1,-7.172483206E-1,-1.723653078E-2
1.837269000E0,-1.836341806E-2,-4.638128579E-1,-1.072137151E-2
1.847329000E0,-2.697764635E-1,-2.147353888E-1,3.314541653E-2
1.857389000E0,-4.398941398E-1,7.665349403E-4,1.269885600E-1
1.867449000E0,-5.016250014E-1,1.465957463E-1,2.725633979E-1
1.877509000E0,-4.833900630E-1,1.586105973E-1,4.428997040E-1
1.887569000E0,-4.137195051E-1,6.062657759E-2,6.191146374E-1
1.897629000E0,-3.053480089E-1,-1.080037206E-1,7.745801210E-1
1.907689000E0,-2.049274147E-1,-2.769877613E-1,8.616391420E-1
1.917749000E0,-1.298188120E-1,-3.353349566E-1,8.876885772E-1
1.927809000E0,-1.145035625E-1,-3.106836975E-1,8.771700263E-1
1.937869000E0,-1.488538235E-1,-3.140035868E-1,8.579936624E-1
1.947929000E0,-2.409307957E-1,-3.483568430E-1,8.993308544E-1
1.957989000E0,-3.308955729E-1,-3.827254772E-1,9.922624230E-1
1.968049000E0,-3.978791237E-1,-4.217301309E-1,1.090559721E0
1.978109000E0,-4.647460580E-1,-4.367178679E-1,1.187652946E0
1.988169000E0,-5.187366009E-1,-4.119326174E-1,1.260435224E0
1.998229000E0,-5.640904903E-1,-3.717239499E-1,1.298383474E0
2.008289000E0,-5.934351087E-1,-3.231881261E-1,1.304519296E0
2.018349000E0,-5.747706294E-1,-2.688383460E-1,1.296877027E0
2.028409000E0,-4.752452374E-1,-1.885685921E-1,1.281883001E0
2.038469000E0,-3.090898097E-1,-8.788858354E-2,1.240889549E0
2.048529000E0,-8.635703474E-2,4.865122214E-2,1.172775149E0
2.058589000E0,1.183321923E-1,2.437136620E-1,1.081352353E0
2.068649000E0,2.487076223E-1,4.673382342E-1,9.759622812E-1
2.078709000E0,2.920244634E-1,6.806204319E-1,8.808155060E-1
2.088769000E0,2.566632032E-1,8.460345864E-1,8.078998923E-1
2.098829000E0,1.690393388E-1,9.462389350E-1,7.583102584E-1
2.108889000E0,5.601258203E-2,1.010228157E0,7.449349761E-1
2.118949000E0,-7.519444078E-2,1.053189754E0,7.453613281E-1
2.129009000E0,-1.831263453E-1,1.044445753E0,7.343204618E-1
2.139069000E0,-2.267923355E-1,1.006422997E0,6.733572483E-1
2.149129000E0,-2.257107347E-1,9.395797849E-1,5.776979923E-1
2.159189000E0,-2.209002674E-1,8.433105350E-1,4.700396359E-1
2.169249000E0,-1.993023604E-1,7.332593799E-1,3.472270966E-1
2.179309000E0,-1.457520574E-1,6.157476306E-1,2.073711753E-1
2.189370000E0,-5.024037510E-2,4.805960655E-1,4.893609509E-2
2.199430000E0,6.553255767E-2,3.253985047E-1,-1.150776073E-1
2.209490000E0,1.439482123E-1,1.924312711E-1,-2.415123582E-1
2.219550000E0,1.527813822E-1,1.093025655E-1,-3.239758015E-1
2.229610000E0,1.275116354E-1,6.395134330E-2,-3.728341162E-1
2.239670000E0,9.494648874E-2,2.683406323E-2,-3.811559677E-1
2.249729667E0,5.521155521E-2,-2.548239380E-2,-3.712386191E-1
2.259789667E0,1.954223774E-2,-5.512417480E-2,-3.732522130E-1
2.269849667E0,-1.167733688E-2,-5.822598189E-2,-3.815133870E-1
2.279909667E0,-1.677432680E-3,-3.086839244E-2,-3.835451007E-1
2.289969667E0,3.748102114E-2,8.394205570E-2,-3.846125603E-1
2.300029667E0,4.082968086E-2,2.742350399E-1,-3.766877949E-1
2.310089667E0,-5.515350774E-2,4.682064950E-1,-3.923779726E-1
2.320149667E0,-2.228247970E-1,6.893072128E-1,-4.481530786E-1
2.330209667E0,-3.906208873E-1,9.055441618E-1,-4.711536765E-1
2.340269667E0,-5.348255038E-1,1.071199179E0,-4.304411411E-1
2.350329667E0,-6.310589910E-1,1.152559400E0,-3.482609391E-1
2.360389667E0,-6.574873924E-1,1.144220829E0,-2.510625124E-1
2.370449667E0,-5.985312462E-1,1.035938144E0,-1.673900336E-1
2.380509667E0,-4.793044627E-1,8.307104111E-1,-8.915515244E-2
2.390569667E0,-3.428019285E-1,5.510817766E-1,-3.147885576E-2
2.400629667E0,-2.067101300E-1,2.487781048E-1,1.806126907E-2
2.410689667E0,-1.142879948E-1,-4.836058989E-2,5.572592840E-2
2.420749667E0,-6.208897755E-2,-2.792207003E-1,9.170150757E-2
2.430809667E0,-3.213420883E-2,-4.395942688E-1,1.002373099E-1
2.440869667E0,-3.629539534E-2,-5.751595497E-1,8.358109742E-2
2.450929667E0,-6.218618527E-2,-6.403658390E-1,7.182633877E-2
2.460989667E0,-1.022534370E-1,-6.709541082E-1,5.820027366E-2
2.471049667E0,-1.351274997E-1,-6.209460497E-1,3.314258903E-2
2.481109667E0,-1.419944614E-1,-5.055601001E-1,-1.799090207E-2
2.491169667E0,-1.113818884E-1,-3.948294818E-1,-5.659464747E-2
2.501229667E0,-7.671392709E-2,-3.378740549E-1,-6.012307107E-2
2.511289667E0,-4.726407677E-2,-2.851088345E-1,-4.391725361E-2
2.521349667E0,7.079057395E-3,-2.654568255E-1,1.621639170E-2
2.531409667E0,7.893502712E-2,-2.664858103E-1,1.037690863E-1
2.541469667E0,1.749196053E-1,-2.915549576E-1,2.119690627E-1
2.551529667E0,3.015558720E-1,-3.649639785E-1,3.189635277E-1
2.561589667E0,4.339115322E-1,-4.594571888E-1,4.001020789E-1
2.571649667E0,5.553134680E-1,-6.388730407E-1,4.487194419E-1
2.581709667E0,7.246857285E-1,-8.665482402E-1,4.320033193E-1
2.591769667E0,9.659811854E-1,-1.122475743E0,4.037735164E-1
2.601829667E0,1.138650179E0,-1.371086597E0,4.329622984E-1
2.611889667E0,1.316153288E0,-1.298837066E0,4.265981615E-1
2.621950667E0,1.476979136E0,-8.965429068E-1,3.635102808E-1
2.632010667E0,1.537352443E0,-4.422518015E-1,2.803196907E-1
2.642070667E0,1.500205278E0,-3.990592808E-2,8.062574267E-2
2.652130667E0,1.398830056E0,3.767820299E-1,-2.496551722E-1
2.662190667E0,1.202391624E0,7.433663607E-1,-5.528272986E-1
2.672250667E0,1.012842655E0,1.018711805E0,-6.724036932E-1
2.682310667E0,1.092395544E0,1.231644630E0,-5.995646715E-1
2.692370667E0,1.541561723E0,1.270667911E0,-3.671074510E-1
2.702430667E0,2.207431793E0,1.028319716E0,-3.434968647E-3
2.712490667E0,2.755517006E0,5.581378937E-1,3.514392972E-1
2.722550667E0,2.951867819E0,9.997516125E-2,6.144168377E-1
2.732610667E0,2.798844576E0,-2.564087808E-1,8.137720823E-1
2.742670667E0,2.412198782E0,-5.292845368E-1,9.104048610E-1
2.752730667E0,1.980222106E0,-7.688245177E-1,7.836109400E-1
2.762790667E0,1.674501657E0,-9.573017359E-1,4.329136908E-1
2.772850667E0,1.517789245E0,-9.995967746E-1,-2.165738121E-2
2.782910667E0,1.411046505E0,-8.389199972E-1,-4.356769323E-1
2.792970667E0,1.292662263E0,-6.143553853E-1,-7.590190172E-1
2.803030667E0,1.158319831E0,-4.496556818E-1,-9.504038692E-1
2.813090667E0,9.676494598E-1,-3.121042252E-1,-1.009795070E0
2.823150667E0,7.075704932E-1,-1.878627092E-1,-9.984287620E-1
2.833210667E0,3.791694939E-1,-1.091918275E-1,-9.909486175E-1
2.843270667E0,-2.116459794E-2,-6.509334594E-2,-1.013430953E0
2.853330667E0,-4.418960214E-1,-5.910849199E-2,-1.065287471E0
2.863390667E0,-8.353306651E-1,-1.041292250E-1,-1.152104139E0
2.873450667E0,-1.187720418E0,-1.370606273E-1,-1.256072640E0
2.883510667E0,-1.432107210E0,-1.371599734E-1,-1.272255898E0
2.893570667E0,-1.577082396E0,-1.354678124E-1,-1.116400957E0
2.903630667E0,-1.694121122E0,-1.563456655E-1,-9.010842443E-1
2.913690667E0,-1.736626148E0,-2.295684665E-1,-7.196326852E-1
2.923750667E0,-1.663290858E0,-3.421871662E-1,-6.194405556E-1
2.933810667E0,-1.528958201E0,-5.111011863E-1,-6.094638705E-1
2.943870667E0,-1.413118124E0,-6.850964427E-1,-6.842123866E-1
2.953930667E0,-1.352176666E0,-7.514578700E-1,-8.344526291E-1
2.963990667E0,-1.360444427E0,-6.787138581E-1,-9.521515369E-1
2.974050667E0,-1.462060213E0,-5.263250470E-1,-1.009348273E0
2.984110667E0,-1.622566223E0,-2.941986322E-1,-1.072694778E0
2.994170667E0,-1.698836684E0,6.727100350E-3,-1.099354148E0
3.004230667E0,-1.562088609E0,3.327219784E-1,-1.006456733E0
3.014291667E0,-1.164686322E0,5.711062551E-1,-8.177992702E-1
3.024351667E0,-6.127489805E-1,7.025926113E-1,-5.973140001E-1
3.034411667E0,-1.888718572E-3,6.891580820E-1,-3.856869042E-1
3.044471667E0,3.679676354E-1,5.568407774E-1,-1.019119024E-1
3.054531667E0,4.079186916E-1,4.162781239E-1,1.237781420E-1
3.064591667E0,2.722247541E-1,2.800566256E-1,2.521803379E-1
3.074651667E0,5.835361406E-2,1.775134057E-1,2.777042389E-1
3.084711667E0,-1.220004484E-1,9.249171615E-2,1.683234125E-1
3.094771667E0,-2.447367460E-1,-3.271991387E-2,-1.880519651E-2
3.104831667E0,-3.237961233E-1,-1.409268081E-1,-1.760004014E-1
3.114891667E0,-2.902297378E-1,-2.100914270E-1,-2.359986007E-1
3.124951667E0,-2.169222385E-1,-2.351885289E-1,-2.756890059E-1
3.135011667E0,-1.328007281E-1,-2.206583470E-1,-2.970097065E-1
3.145071667E0,-1.641259156E-2,-1.887576729E-1,-2.811577618E-1
3.155131667E0,1.631302983E-1,-1.052971706E-1,-2.327909321E-1
3.165191667E0,3.234677613E-1,-2.504627593E-2,-2.077550888E-1
3.175251667E0,4.374754429E-1,8.119345456E-2,-2.363496721E-1
3.185311667E0,4.999015629E-1,1.639879495E-1,-3.227607310E-1
3.195371667E0,5.152934790E-1,2.139939219E-1,-4.229422808E-1
3.205431667E0,5.057297945E-1,2.027529776E-1,-5.161976814E-1
3.215491667E0,4.743473828E-1,1.576148868E-1,-5.806496143E-1
3.225551667E0,4.215472937E-1,1.837977469E-1,-5.921071172E-1
3.235611667E0,3.559437990E-1,2.483687848E-1,-5.734137297E-1
3.245671667E0,2.300751060E-1,3.392158747E-1,-5.683408976E-1
3.255732375E0,-4.985262454E-2,4.961154461E-1,-5.768268108E-1
3.265792375E0,-4.205087125E-1,7.334113717E-1,-5.743695498E-1
3.275852375E0,-7.382534146E-1,9.663342834E-1,-5.144561529E-1
3.285912375E0,-9.510141611E-1,1.115741849E0,-3.355143368E-1
3.295972375E0,-1.097698331E0,1.097184777E0,-1.397604495E-1
3.306032375E0,-1.125854850E0,9.101263881E-1,1.305999979E-2
3.316092375E0,-9.300320745E-1,5.405680537E-1,9.233415872E-2
3.326152375E0,-4.884552360E-1,9.920342267E-2,1.057423726E-1
3.336212375E0,1.515271217E-1,-2.398385108E-1,1.688977927E-1
3.346273375E0,7.877160907E-1,-4.680791199E-1,2.070278674E-1
